Step,ToT (s)
1,0.0
2,0.0
3,0.0
4,0.0
5,0.0
6,0.0
7,0.0
8,0.0
9,0.0
10,1.44178e-10
11,2.47419e-10
12,3.18445e-10
13,3.75909e-10
14,4.2522e-10
15,4.68858e-10
16,5.08348e-10
17,5.44647e-10
18,5.78377e-10
19,6.09989e-10
20,6.39816e-10
21,6.6809e-10
22,6.94996e-10
23,7.20668e-10
24,7.45219e-10
25,7.68783e-10
26,7.91393e-10
27,8.13191e-10
28,8.34198e-10
29,8.54485e-10
30,8.74131e-10
31,8.93173e-10
32,9.11659e-10
33,9.29623e-10
34,9.471e-10
35,9.64124e-10
36,9.80726e-10
37,9.96922e-10
38,1.01274e-09
39,1.02819e-09
40,1.0433e-09
41,1.05808e-09
42,1.07255e-09
43,1.08671e-09
44,1.10058e-09
45,1.11416e-09
46,1.12746e-09
47,1.14051e-09
48,1.15331e-09
49,1.16584e-09
50,1.17815e-09
51,1.19022e-09
52,1.20206e-09
53,1.21371e-09
54,1.22513e-09
55,1.23635e-09
56,1.24739e-09
57,1.25823e-09
58,1.26891e-09
59,1.27938e-09
60,1.28972e-09
61,1.29986e-09
62,1.30987e-09
63,1.31971e-09
64,1.32942e-09
65,1.33897e-09
66,1.3484e-09
67,1.35767e-09
68,1.36684e-09
69,1.37585e-09
70,1.38476e-09
71,1.39355e-09
72,1.40221e-09
73,1.41077e-09
74,1.41921e-09
75,1.42755e-09
76,1.43578e-09
77,1.44391e-09
78,1.45195e-09
79,1.45987e-09
80,1.46771e-09
81,1.47545e-09
82,1.4831e-09
83,1.49066e-09
84,1.49813e-09
85,1.50551e-09
86,1.51282e-09
87,1.52003e-09
88,1.52716e-09
89,1.53423e-09
90,1.54119e-09
91,1.54809e-09
92,1.55492e-09
93,1.56166e-09
94,1.56833e-09
95,1.57493e-09
96,1.58146e-09
97,1.58791e-09
98,1.59429e-09
99,1.60062e-09
100,1.60686e-09
101,1.61304e-09
102,1.61917e-09
103,1.62523e-09
104,1.63121e-09
105,1.63713e-09
106,1.64301e-09
107,1.64881e-09
108,1.65455e-09
109,1.66024e-09
110,1.66587e-09
111,1.67145e-09
112,1.67696e-09
113,1.68241e-09
114,1.68783e-09
115,1.69319e-09
116,1.69848e-09
117,1.70372e-09
118,1.70892e-09
119,1.71407e-09
120,1.71917e-09
121,1.72421e-09
122,1.72921e-09
123,1.73416e-09
124,1.73907e-09
125,1.74393e-09
126,1.74874e-09
127,1.75351e-09
128,1.75823e-09
129,1.76292e-09
130,1.76757e-09
131,1.77216e-09
132,1.77671e-09
133,1.78123e-09
134,1.7857e-09
135,1.79015e-09
136,1.79454e-09
137,1.79889e-09
138,1.80321e-09
139,1.8075e-09
140,1.81175e-09
141,1.81597e-09
142,1.82014e-09
143,1.82427e-09
144,1.82837e-09
145,1.83244e-09
146,1.83648e-09
147,1.84049e-09
148,1.84446e-09
149,1.84839e-09
150,1.8523e-09
151,1.85617e-09
152,1.86002e-09
153,1.86383e-09
154,1.86762e-09
155,1.87137e-09
156,1.87509e-09
157,1.87878e-09
158,1.88244e-09
159,1.88608e-09
160,1.88969e-09
161,1.89327e-09
162,1.89683e-09
163,1.90035e-09
164,1.90385e-09
165,1.90732e-09
166,1.91077e-09
167,1.91419e-09
168,1.91759e-09
169,1.92096e-09
170,1.92431e-09
171,1.92763e-09
172,1.93092e-09
173,1.9342e-09
174,1.93745e-09
175,1.94067e-09
176,1.94388e-09
177,1.94706e-09
178,1.95022e-09
179,1.95335e-09
180,1.95647e-09
181,1.95956e-09
182,1.96263e-09
183,1.96567e-09
184,1.9687e-09
185,1.97171e-09
186,1.9747e-09
187,1.97767e-09
188,1.98061e-09
189,1.98353e-09
190,1.98644e-09
191,1.98932e-09
192,1.99219e-09
193,1.99504e-09
194,1.99786e-09
195,2.00068e-09
196,2.00347e-09
197,2.00624e-09
198,2.00899e-09
199,2.01173e-09
200,2.01445e-09
201,2.01715e-09
202,2.01983e-09
203,2.02249e-09
204,2.02514e-09
205,2.02777e-09
206,2.03039e-09
207,2.03298e-09
208,2.03557e-09
209,2.03813e-09
210,2.04068e-09
211,2.04321e-09
212,2.04573e-09
213,2.04823e-09
214,2.05071e-09
215,2.05318e-09
216,2.05564e-09
217,2.05808e-09
218,2.0605e-09
219,2.06291e-09
220,2.0653e-09
221,2.06768e-09
222,2.07005e-09
223,2.0724e-09
224,2.07473e-09
225,2.07705e-09
226,2.07936e-09
227,2.08166e-09
228,2.08393e-09
229,2.0862e-09
230,2.08845e-09
231,2.09069e-09
232,2.09292e-09
233,2.09513e-09
234,2.09733e-09
235,2.09952e-09
236,2.10169e-09
237,2.10385e-09
238,2.106e-09
239,2.10814e-09
240,2.11026e-09
241,2.11237e-09
242,2.11447e-09
243,2.11656e-09
244,2.11863e-09
245,2.12069e-09
246,2.12274e-09
247,2.12478e-09
248,2.12681e-09
249,2.12883e-09
250,2.13083e-09
251,2.13282e-09
252,2.1348e-09
253,2.13677e-09
254,2.13873e-09
255,2.14068e-09
256,2.14262e-09
257,2.14454e-09
258,2.14645e-09
259,2.14836e-09
260,2.15025e-09
261,2.15214e-09
262,2.15401e-09
263,2.15588e-09
264,2.15773e-09
265,2.15957e-09
266,2.1614e-09
267,2.16322e-09
268,2.16503e-09
269,2.16683e-09
270,2.16863e-09
271,2.17041e-09
272,2.17218e-09
273,2.17394e-09
274,2.17569e-09
275,2.17744e-09
276,2.17917e-09
277,2.1809e-09
278,2.18261e-09
279,2.18432e-09
280,2.18602e-09
281,2.18771e-09
282,2.18938e-09
283,2.19105e-09
284,2.19272e-09
285,2.19437e-09
286,2.19601e-09
287,2.19764e-09
288,2.19927e-09
289,2.20088e-09
290,2.20249e-09
291,2.20409e-09
292,2.20569e-09
293,2.20727e-09
294,2.20885e-09
295,2.21042e-09
296,2.21197e-09
297,2.21353e-09
298,2.21507e-09
299,2.2166e-09
300,2.21813e-09
301,2.21965e-09
302,2.22116e-09
303,2.22266e-09
304,2.22415e-09
305,2.22564e-09
306,2.22712e-09
307,2.22859e-09
308,2.23006e-09
309,2.23151e-09
310,2.23296e-09
311,2.23441e-09
312,2.23585e-09
313,2.23727e-09
314,2.2387e-09
315,2.24011e-09
316,2.24151e-09
317,2.24291e-09
318,2.24431e-09
319,2.24569e-09
320,2.24707e-09
321,2.24844e-09
322,2.2498e-09
323,2.25116e-09
324,2.25251e-09
325,2.25385e-09
326,2.25518e-09
327,2.25651e-09
328,2.25784e-09
329,2.25916e-09
330,2.26047e-09
331,2.26178e-09
332,2.26307e-09
333,2.26437e-09
334,2.26565e-09
335,2.26693e-09
336,2.2682e-09
337,2.26947e-09
338,2.27073e-09
339,2.27198e-09
340,2.27323e-09
341,2.27447e-09
342,2.2757e-09
343,2.27693e-09
344,2.27815e-09
345,2.27937e-09
346,2.28058e-09
347,2.28178e-09
348,2.28298e-09
349,2.28417e-09
350,2.28536e-09
351,2.28655e-09
352,2.28772e-09
353,2.2889e-09
354,2.29006e-09
355,2.29122e-09
356,2.29238e-09
357,2.29352e-09
358,2.29467e-09
359,2.2958e-09
360,2.29694e-09
361,2.29806e-09
362,2.29918e-09
363,2.30029e-09
364,2.3014e-09
365,2.30251e-09
366,2.30361e-09
367,2.3047e-09
368,2.30579e-09
369,2.30687e-09
370,2.30794e-09
371,2.30901e-09
372,2.31008e-09
373,2.31115e-09
374,2.31221e-09
375,2.31326e-09
376,2.31431e-09
377,2.31535e-09
378,2.31639e-09
379,2.31742e-09
380,2.31845e-09
381,2.31948e-09
382,2.3205e-09
383,2.32151e-09
384,2.32252e-09
385,2.32352e-09
386,2.32452e-09
387,2.32551e-09
388,2.3265e-09
389,2.32748e-09
390,2.32846e-09
391,2.32944e-09
392,2.3304e-09
393,2.33137e-09
394,2.33233e-09
395,2.33329e-09
396,2.33424e-09
397,2.33519e-09
398,2.33613e-09
399,2.33707e-09
400,2.338e-09
401,2.33893e-09
402,2.33986e-09
403,2.34078e-09
404,2.3417e-09
405,2.34261e-09
406,2.34352e-09
407,2.34442e-09
408,2.34532e-09
409,2.34622e-09
410,2.34711e-09
411,2.348e-09
412,2.34888e-09
413,2.34976e-09
414,2.35063e-09
415,2.3515e-09
416,2.35237e-09
417,2.35323e-09
418,2.35409e-09
419,2.35495e-09
420,2.3558e-09
421,2.35664e-09
422,2.35749e-09
423,2.35833e-09
424,2.35916e-09
425,2.35999e-09
426,2.36082e-09
427,2.36164e-09
428,2.36246e-09
429,2.36328e-09
430,2.36409e-09
431,2.3649e-09
432,2.3657e-09
433,2.3665e-09
434,2.3673e-09
435,2.36809e-09
436,2.36888e-09
437,2.36967e-09
438,2.37045e-09
439,2.37123e-09
440,2.372e-09
441,2.37278e-09
442,2.37354e-09
443,2.37431e-09
444,2.37507e-09
445,2.37582e-09
446,2.37658e-09
447,2.37732e-09
448,2.37807e-09
449,2.37881e-09
450,2.37955e-09
451,2.38029e-09
452,2.38102e-09
453,2.38175e-09
454,2.38248e-09
455,2.3832e-09
456,2.38392e-09
457,2.38463e-09
458,2.38535e-09
459,2.38605e-09
460,2.38676e-09
461,2.38746e-09
462,2.38816e-09
463,2.38886e-09
464,2.38956e-09
465,2.39024e-09
466,2.39093e-09
467,2.39161e-09
468,2.39229e-09
469,2.39297e-09
470,2.39364e-09
471,2.39432e-09
472,2.39498e-09
473,2.39565e-09
474,2.39631e-09
475,2.39697e-09
476,2.39763e-09
477,2.39828e-09
478,2.39894e-09
479,2.39958e-09
480,2.40023e-09
481,2.40087e-09
482,2.40151e-09
483,2.40214e-09
484,2.40278e-09
485,2.40341e-09
486,2.40403e-09
487,2.40466e-09
488,2.40528e-09
489,2.4059e-09
490,2.40651e-09
491,2.40712e-09
492,2.40773e-09
493,2.40833e-09
494,2.40894e-09
495,2.40954e-09
496,2.41013e-09
497,2.41073e-09
498,2.41132e-09
499,2.41191e-09
500,2.4125e-09
501,2.41308e-09
502,2.41366e-09
503,2.41424e-09
504,2.41481e-09
505,2.41538e-09
506,2.41595e-09
507,2.41652e-09
508,2.41708e-09
509,2.41764e-09
510,2.4182e-09
511,2.41876e-09
512,2.41932e-09
513,2.41987e-09
514,2.42042e-09
515,2.42097e-09
516,2.42152e-09
517,2.42206e-09
518,2.4226e-09
519,2.42314e-09
520,2.42367e-09
521,2.42421e-09
522,2.42474e-09
523,2.42526e-09
524,2.42579e-09
525,2.42631e-09
526,2.42683e-09
527,2.42735e-09
528,2.42787e-09
529,2.42838e-09
530,2.42889e-09
531,2.4294e-09
532,2.4299e-09
533,2.4304e-09
534,2.43091e-09
535,2.4314e-09
536,2.4319e-09
537,2.43239e-09
538,2.43288e-09
539,2.43337e-09
540,2.43385e-09
541,2.43434e-09
542,2.43482e-09
543,2.4353e-09
544,2.43578e-09
545,2.43625e-09
546,2.43672e-09
547,2.43719e-09
548,2.43766e-09
549,2.43812e-09
550,2.43859e-09
551,2.43905e-09
552,2.43951e-09
553,2.43997e-09
554,2.44043e-09
555,2.44088e-09
556,2.44134e-09
557,2.44179e-09
558,2.44224e-09
559,2.44269e-09
560,2.44313e-09
561,2.44357e-09
562,2.44402e-09
563,2.44445e-09
564,2.44489e-09
565,2.44532e-09
566,2.44576e-09
567,2.44619e-09
568,2.44661e-09
569,2.44704e-09
570,2.44746e-09
571,2.44788e-09
572,2.4483e-09
573,2.44872e-09
574,2.44913e-09
575,2.44955e-09
576,2.44996e-09
577,2.45037e-09
578,2.45077e-09
579,2.45118e-09
580,2.45158e-09
581,2.45198e-09
582,2.45238e-09
583,2.45278e-09
584,2.45318e-09
585,2.45357e-09
586,2.45396e-09
587,2.45435e-09
588,2.45474e-09
589,2.45512e-09
590,2.4555e-09
591,2.45589e-09
592,2.45626e-09
593,2.45664e-09
594,2.45702e-09
595,2.45739e-09
596,2.45776e-09
597,2.45813e-09
598,2.4585e-09
599,2.45887e-09
600,2.45924e-09
601,2.45961e-09
602,2.45998e-09
603,2.46034e-09
604,2.4607e-09
605,2.46106e-09
606,2.46142e-09
607,2.46178e-09
608,2.46213e-09
609,2.46249e-09
610,2.46284e-09
611,2.46319e-09
612,2.46353e-09
613,2.46388e-09
614,2.46422e-09
615,2.46456e-09
616,2.4649e-09
617,2.46524e-09
618,2.46558e-09
619,2.46591e-09
620,2.46625e-09
621,2.46658e-09
622,2.46691e-09
623,2.46724e-09
624,2.46756e-09
625,2.46789e-09
626,2.46821e-09
627,2.46853e-09
628,2.46885e-09
629,2.46917e-09
630,2.46949e-09
631,2.4698e-09
632,2.47012e-09
633,2.47043e-09
634,2.47074e-09
635,2.47105e-09
636,2.47135e-09
637,2.47166e-09
638,2.47196e-09
639,2.47227e-09
640,2.47257e-09
641,2.47286e-09
642,2.47316e-09
643,2.47346e-09
644,2.47375e-09
645,2.47404e-09
646,2.47433e-09
647,2.47462e-09
648,2.47491e-09
649,2.47519e-09
650,2.47548e-09
651,2.47576e-09
652,2.47605e-09
653,2.47634e-09
654,2.47662e-09
655,2.4769e-09
656,2.47718e-09
657,2.47746e-09
658,2.47774e-09
659,2.47802e-09
660,2.47829e-09
661,2.47857e-09
662,2.47884e-09
663,2.47911e-09
664,2.47938e-09
665,2.47965e-09
666,2.47991e-09
667,2.48018e-09
668,2.48044e-09
669,2.4807e-09
670,2.48096e-09
671,2.48122e-09
672,2.48148e-09
673,2.48173e-09
674,2.48199e-09
675,2.48224e-09
676,2.48249e-09
677,2.48274e-09
678,2.48299e-09
679,2.48324e-09
680,2.48349e-09
681,2.48373e-09
682,2.48397e-09
683,2.48422e-09
684,2.48446e-09
685,2.4847e-09
686,2.48493e-09
687,2.48517e-09
688,2.4854e-09
689,2.48564e-09
690,2.48587e-09
691,2.4861e-09
692,2.48633e-09
693,2.48656e-09
694,2.48679e-09
695,2.48702e-09
696,2.48724e-09
697,2.48746e-09
698,2.48769e-09
699,2.48791e-09
700,2.48813e-09
701,2.48835e-09
702,2.48856e-09
703,2.48878e-09
704,2.48899e-09
705,2.48921e-09
706,2.48942e-09
707,2.48963e-09
708,2.48984e-09
709,2.49005e-09
710,2.49025e-09
711,2.49046e-09
712,2.49067e-09
713,2.49088e-09
714,2.49109e-09
715,2.49129e-09
716,2.4915e-09
717,2.4917e-09
718,2.49191e-09
719,2.49211e-09
720,2.49231e-09
721,2.49251e-09
722,2.49271e-09
723,2.4929e-09
724,2.4931e-09
725,2.49329e-09
726,2.49349e-09
727,2.49368e-09
728,2.49387e-09
729,2.49406e-09
730,2.49425e-09
731,2.49443e-09
732,2.49462e-09
733,2.4948e-09
734,2.49499e-09
735,2.49517e-09
736,2.49535e-09
737,2.49553e-09
738,2.49571e-09
739,2.49589e-09
740,2.49607e-09
741,2.49624e-09
742,2.49642e-09
743,2.49659e-09
744,2.49677e-09
745,2.49694e-09
746,2.49711e-09
747,2.49728e-09
748,2.49745e-09
749,2.49761e-09
750,2.49778e-09
751,2.49795e-09
752,2.49811e-09
753,2.49827e-09
754,2.49843e-09
755,2.4986e-09
756,2.49876e-09
757,2.49891e-09
758,2.49907e-09
759,2.49923e-09
760,2.49938e-09
761,2.49954e-09
762,2.49969e-09
763,2.49985e-09
764,2.5e-09
765,2.50015e-09
766,2.5003e-09
767,2.50045e-09
768,2.50059e-09
769,2.50074e-09
770,2.50088e-09
771,2.50103e-09
772,2.50117e-09
773,2.50132e-09
774,2.50146e-09
775,2.5016e-09
776,2.50174e-09
777,2.50187e-09
778,2.50201e-09
779,2.50215e-09
780,2.50229e-09
781,2.50243e-09
782,2.50257e-09
783,2.5027e-09
784,2.50284e-09
785,2.50298e-09
786,2.50311e-09
787,2.50325e-09
788,2.50338e-09
789,2.50351e-09
790,2.50364e-09
791,2.50378e-09
792,2.50391e-09
793,2.50403e-09
794,2.50416e-09
795,2.50429e-09
796,2.50441e-09
797,2.50454e-09
798,2.50466e-09
799,2.50479e-09
800,2.50491e-09
801,2.50503e-09
802,2.50515e-09
803,2.50527e-09
804,2.50539e-09
805,2.50551e-09
806,2.50562e-09
807,2.50574e-09
808,2.50585e-09
809,2.50597e-09
810,2.50608e-09
811,2.50619e-09
812,2.50631e-09
813,2.50642e-09
814,2.50653e-09
815,2.50664e-09
816,2.50674e-09
817,2.50685e-09
818,2.50696e-09
819,2.50706e-09
820,2.50717e-09
821,2.50727e-09
822,2.50737e-09
823,2.50748e-09
824,2.50758e-09
825,2.50768e-09
826,2.50778e-09
827,2.50787e-09
828,2.50797e-09
829,2.50807e-09
830,2.50817e-09
831,2.50826e-09
832,2.50836e-09
833,2.50845e-09
834,2.50854e-09
835,2.50863e-09
836,2.50873e-09
837,2.50882e-09
838,2.50891e-09
839,2.50899e-09
840,2.50908e-09
841,2.50917e-09
842,2.50926e-09
843,2.50934e-09
844,2.50943e-09
845,2.50951e-09
846,2.50959e-09
847,2.50968e-09
848,2.50976e-09
849,2.50984e-09
850,2.50992e-09
851,2.51e-09
852,2.51008e-09
853,2.51015e-09
854,2.51023e-09
855,2.51031e-09
856,2.51038e-09
857,2.51046e-09
858,2.51053e-09
859,2.51061e-09
860,2.51068e-09
861,2.51076e-09
862,2.51084e-09
863,2.51091e-09
864,2.51099e-09
865,2.51106e-09
866,2.51114e-09
867,2.51121e-09
868,2.51128e-09
869,2.51136e-09
870,2.51143e-09
871,2.5115e-09
872,2.51157e-09
873,2.51163e-09
874,2.5117e-09
875,2.51177e-09
876,2.51184e-09
877,2.5119e-09
878,2.51197e-09
879,2.51203e-09
880,2.51209e-09
881,2.51216e-09
