Step,ToT (s)
1,2.2019e-09
2,2.20588e-09
3,2.20934e-09
4,2.21319e-09
5,2.21717e-09
6,2.22073e-09
7,2.22414e-09
8,2.2275e-09
9,2.23136e-09
10,2.23472e-09
11,2.23816e-09
12,2.24138e-09
13,2.24455e-09
14,2.24768e-09
15,2.25081e-09
16,2.25421e-09
17,2.2574e-09
18,2.26049e-09
19,2.26346e-09
20,2.26636e-09
21,2.26923e-09
22,2.27215e-09
23,2.27477e-09
24,2.27764e-09
25,2.2805e-09
26,2.28308e-09
27,2.28584e-09
28,2.28867e-09
29,2.29132e-09
30,2.2939e-09
31,2.29645e-09
32,2.29894e-09
33,2.30141e-09
34,2.30388e-09
35,2.30628e-09
36,2.30861e-09
37,2.31105e-09
38,2.31331e-09
39,2.31558e-09
40,2.31764e-09
41,2.31991e-09
42,2.32215e-09
43,2.32437e-09
44,2.32656e-09
45,2.32872e-09
46,2.3308e-09
47,2.33285e-09
48,2.33488e-09
49,2.33698e-09
50,2.33896e-09
51,2.34091e-09
52,2.34282e-09
53,2.34482e-09
54,2.3467e-09
55,2.34856e-09
56,2.35059e-09
57,2.35242e-09
58,2.35423e-09
59,2.35596e-09
60,2.35771e-09
61,2.35945e-09
62,2.36129e-09
63,2.36302e-09
64,2.36472e-09
65,2.36636e-09
66,2.368e-09
67,2.36967e-09
68,2.37131e-09
69,2.3729e-09
70,2.37448e-09
71,2.37603e-09
72,2.37757e-09
73,2.37903e-09
74,2.3805e-09
75,2.38198e-09
76,2.3835e-09
77,2.38499e-09
78,2.38644e-09
79,2.38789e-09
80,2.38931e-09
81,2.39071e-09
82,2.39209e-09
83,2.39346e-09
84,2.3948e-09
85,2.39614e-09
86,2.39745e-09
87,2.39873e-09
88,2.40004e-09
89,2.40129e-09
90,2.40254e-09
91,2.40378e-09
92,2.40505e-09
93,2.40627e-09
94,2.40749e-09
95,2.40868e-09
96,2.40986e-09
97,2.41103e-09
98,2.4122e-09
99,2.41335e-09
100,2.41448e-09
101,2.41556e-09
102,2.41666e-09
103,2.41776e-09
104,2.41884e-09
105,2.41992e-09
106,2.421e-09
107,2.42206e-09
108,2.42311e-09
109,2.42415e-09
110,2.42516e-09
111,2.42616e-09
112,2.42721e-09
113,2.42819e-09
114,2.42916e-09
115,2.4301e-09
116,2.43106e-09
117,2.43201e-09
118,2.43295e-09
119,2.43387e-09
120,2.43479e-09
121,2.4357e-09
122,2.43661e-09
123,2.43751e-09
124,2.4384e-09
125,2.43928e-09
126,2.44015e-09
127,2.44101e-09
128,2.44186e-09
129,2.44271e-09
130,2.44354e-09
131,2.44436e-09
132,2.44518e-09
133,2.44597e-09
134,2.44677e-09
135,2.44756e-09
136,2.44834e-09
137,2.44911e-09
138,2.44987e-09
139,2.45063e-09
140,2.45138e-09
141,2.45212e-09
142,2.45285e-09
143,2.45358e-09
144,2.45429e-09
145,2.455e-09
146,2.4557e-09
147,2.4564e-09
148,2.45708e-09
149,2.45776e-09
150,2.45843e-09
151,2.45911e-09
152,2.45979e-09
153,2.46045e-09
154,2.46111e-09
155,2.46176e-09
156,2.4624e-09
157,2.46303e-09
158,2.46366e-09
159,2.46428e-09
160,2.46489e-09
161,2.4655e-09
162,2.4661e-09
163,2.46669e-09
164,2.46729e-09
165,2.46787e-09
166,2.46845e-09
167,2.46903e-09
168,2.46959e-09
169,2.47016e-09
170,2.47071e-09
171,2.47128e-09
172,2.47182e-09
173,2.47235e-09
174,2.47288e-09
175,2.4734e-09
176,2.47392e-09
177,2.47443e-09
178,2.47494e-09
179,2.47543e-09
180,2.47593e-09
181,2.47641e-09
182,2.4769e-09
183,2.47737e-09
184,2.47784e-09
185,2.47828e-09
186,2.47876e-09
187,2.47923e-09
188,2.4797e-09
189,2.48015e-09
190,2.48061e-09
191,2.48105e-09
192,2.48149e-09
193,2.48193e-09
194,2.48236e-09
195,2.48279e-09
196,2.48321e-09
197,2.48363e-09
198,2.48404e-09
199,2.48445e-09
200,2.48485e-09
201,2.48528e-09
202,2.48567e-09
203,2.48606e-09
204,2.48646e-09
205,2.48684e-09
206,2.48722e-09
207,2.48757e-09
208,2.48794e-09
209,2.4883e-09
210,2.48866e-09
211,2.48902e-09
212,2.48937e-09
213,2.48972e-09
214,2.49006e-09
215,2.4904e-09
216,2.49073e-09
217,2.49107e-09
218,2.4914e-09
219,2.49172e-09
220,2.49203e-09
221,2.49235e-09
222,2.49267e-09
223,2.49298e-09
224,2.49327e-09
225,2.49357e-09
226,2.49388e-09
227,2.49419e-09
228,2.49449e-09
229,2.49478e-09
230,2.49508e-09
231,2.49537e-09
232,2.49565e-09
233,2.49594e-09
234,2.49622e-09
235,2.49649e-09
236,2.49677e-09
237,2.49704e-09
238,2.4973e-09
239,2.49757e-09
240,2.49783e-09
241,2.49808e-09
242,2.49833e-09
243,2.49858e-09
244,2.49883e-09
245,2.49907e-09
246,2.49931e-09
247,2.49954e-09
248,2.49978e-09
249,2.50001e-09
250,2.50023e-09
251,2.50046e-09
252,2.50068e-09
253,2.50089e-09
254,2.5011e-09
255,2.50131e-09
256,2.50152e-09
257,2.50172e-09
258,2.50193e-09
259,2.50212e-09
260,2.50232e-09
261,2.50251e-09
262,2.5027e-09
263,2.50289e-09
264,2.50307e-09
265,2.50325e-09
266,2.50344e-09
267,2.50361e-09
268,2.50381e-09
269,2.50398e-09
270,2.50415e-09
271,2.50431e-09
272,2.50448e-09
273,2.50465e-09
274,2.50482e-09
275,2.50498e-09
276,2.50515e-09
277,2.50531e-09
278,2.50546e-09
279,2.50562e-09
280,2.50577e-09
281,2.50592e-09
282,2.50607e-09
283,2.50622e-09
284,2.50634e-09
285,2.50649e-09
286,2.50662e-09
287,2.50676e-09
288,2.50689e-09
289,2.50705e-09
290,2.50718e-09
291,2.50731e-09
292,2.50743e-09
293,2.50755e-09
294,2.50767e-09
295,2.50779e-09
296,2.5079e-09
297,2.50801e-09
298,2.50812e-09
299,2.50823e-09
300,2.50828e-09
301,2.50838e-09
302,2.50848e-09
303,2.50858e-09
304,2.50868e-09
305,2.50882e-09
306,2.50891e-09
307,2.509e-09
308,2.50909e-09
309,2.50918e-09
310,2.50926e-09
311,2.50934e-09
312,2.50942e-09
313,2.5095e-09
314,2.50958e-09
315,2.50965e-09
316,2.50974e-09
317,2.50981e-09
318,2.50988e-09
319,2.50995e-09
320,2.51001e-09
321,2.51001e-09
322,2.51007e-09
323,2.51013e-09
324,2.51019e-09
325,2.51025e-09
326,2.5103e-09
327,2.51035e-09
328,2.5104e-09
329,2.51045e-09
330,2.5105e-09
331,2.51054e-09
332,2.51067e-09
333,2.51072e-09
334,2.51077e-09
335,2.51081e-09
336,2.51086e-09
337,2.51087e-09
338,2.51091e-09
339,2.51095e-09
340,2.51098e-09
341,2.51102e-09
342,2.51105e-09
343,2.51108e-09
344,2.51111e-09
345,2.51116e-09
346,2.51118e-09
347,2.51121e-09
348,2.51126e-09
349,2.51129e-09
350,2.51131e-09
351,2.51133e-09
352,2.51134e-09
353,2.51135e-09
354,2.51137e-09
355,2.51138e-09
356,2.51139e-09
357,2.5114e-09
358,2.51141e-09
359,2.51142e-09
360,2.51142e-09
361,2.51145e-09
362,2.51145e-09
363,2.51145e-09
364,2.51142e-09
365,2.51142e-09
366,2.51142e-09
367,2.51141e-09
368,2.51141e-09
369,2.51142e-09
370,2.51141e-09
371,2.5114e-09
372,2.51139e-09
373,2.51137e-09
374,2.51136e-09
375,2.51134e-09
376,2.51133e-09
377,2.51131e-09
378,2.51132e-09
379,2.51121e-09
380,2.51119e-09
381,2.51117e-09
382,2.51114e-09
383,2.51112e-09
384,2.51109e-09
385,2.5111e-09
386,2.51107e-09
387,2.51104e-09
388,2.51101e-09
389,2.51098e-09
390,2.51094e-09
391,2.5109e-09
392,2.51087e-09
393,2.51083e-09
394,2.51084e-09
395,2.51066e-09
396,2.51061e-09
397,2.51057e-09
398,2.51052e-09
399,2.51048e-09
400,2.51043e-09
401,2.51044e-09
402,2.5104e-09
403,2.51035e-09
404,2.51029e-09
405,2.51024e-09
406,2.51019e-09
407,2.51014e-09
408,2.5101e-09
409,2.51004e-09
410,2.50999e-09
411,2.51e-09
412,2.50987e-09
413,2.50981e-09
414,2.50975e-09
415,2.50969e-09
416,2.50963e-09
417,2.50955e-09
418,2.50949e-09
419,2.50943e-09
420,2.50937e-09
421,2.5093e-09
422,2.50924e-09
423,2.50918e-09
424,2.50911e-09
425,2.50904e-09
426,2.50897e-09
427,2.50897e-09
428,2.50889e-09
429,2.50881e-09
430,2.50874e-09
431,2.50866e-09
432,2.50859e-09
433,2.50851e-09
434,2.50835e-09
435,2.50827e-09
436,2.50819e-09
437,2.50811e-09
438,2.50802e-09
439,2.50794e-09
440,2.50785e-09
441,2.50777e-09
442,2.50768e-09
443,2.5076e-09
444,2.50763e-09
445,2.50754e-09
446,2.50745e-09
447,2.50736e-09
448,2.50727e-09
449,2.50718e-09
450,2.50703e-09
451,2.50693e-09
452,2.50684e-09
453,2.50674e-09
454,2.50664e-09
455,2.50654e-09
456,2.50644e-09
457,2.50634e-09
458,2.50624e-09
459,2.50614e-09
460,2.50613e-09
461,2.50603e-09
462,2.50592e-09
463,2.50582e-09
464,2.50571e-09
465,2.50561e-09
466,2.50546e-09
467,2.50535e-09
468,2.50524e-09
469,2.50513e-09
470,2.50502e-09
471,2.50491e-09
472,2.5048e-09
473,2.50468e-09
474,2.50457e-09
475,2.50445e-09
476,2.5044e-09
477,2.50428e-09
478,2.50417e-09
479,2.50405e-09
480,2.50393e-09
481,2.50381e-09
482,2.5037e-09
483,2.50355e-09
484,2.50344e-09
485,2.50332e-09
486,2.5032e-09
487,2.50308e-09
488,2.50296e-09
489,2.50284e-09
490,2.50272e-09
491,2.50259e-09
492,2.5025e-09
493,2.50237e-09
494,2.50225e-09
495,2.50213e-09
496,2.502e-09
497,2.50188e-09
498,2.50175e-09
499,2.50162e-09
500,2.50149e-09
501,2.50136e-09
502,2.50123e-09
503,2.5011e-09
504,2.50097e-09
505,2.50084e-09
506,2.50071e-09
507,2.50058e-09
508,2.50044e-09
509,2.5003e-09
510,2.50017e-09
511,2.50004e-09
512,2.4999e-09
513,2.49977e-09
514,2.49963e-09
515,2.49949e-09
516,2.49937e-09
517,2.49923e-09
518,2.49909e-09
519,2.49895e-09
520,2.4988e-09
521,2.49866e-09
522,2.49852e-09
523,2.49838e-09
524,2.49823e-09
525,2.49806e-09
526,2.49791e-09
527,2.49777e-09
528,2.49763e-09
529,2.49748e-09
530,2.49734e-09
531,2.4972e-09
532,2.49708e-09
533,2.49693e-09
534,2.49679e-09
535,2.49664e-09
536,2.4965e-09
537,2.49635e-09
538,2.4962e-09
539,2.49605e-09
540,2.4959e-09
541,2.49575e-09
542,2.49554e-09
543,2.49539e-09
544,2.49524e-09
545,2.49509e-09
546,2.49494e-09
547,2.49479e-09
548,2.49464e-09
549,2.49453e-09
550,2.49437e-09
551,2.49422e-09
552,2.49406e-09
553,2.49391e-09
554,2.49375e-09
555,2.49359e-09
556,2.49344e-09
557,2.49328e-09
558,2.49303e-09
559,2.49287e-09
560,2.49272e-09
561,2.49256e-09
562,2.4924e-09
563,2.49224e-09
564,2.49208e-09
565,2.49192e-09
566,2.49181e-09
567,2.49165e-09
568,2.49149e-09
569,2.49132e-09
570,2.49116e-09
571,2.491e-09
572,2.49083e-09
573,2.49067e-09
574,2.4905e-09
575,2.49023e-09
576,2.49006e-09
577,2.4899e-09
578,2.48974e-09
579,2.48957e-09
580,2.48941e-09
581,2.48924e-09
582,2.48908e-09
583,2.48898e-09
584,2.48881e-09
585,2.48864e-09
586,2.48847e-09
587,2.48831e-09
588,2.48814e-09
589,2.48797e-09
590,2.4878e-09
591,2.48751e-09
592,2.48734e-09
593,2.48716e-09
594,2.48698e-09
595,2.48681e-09
596,2.48663e-09
597,2.48646e-09
598,2.48629e-09
599,2.4862e-09
600,2.48603e-09
601,2.48586e-09
602,2.48569e-09
603,2.48552e-09
604,2.48534e-09
605,2.48517e-09
606,2.485e-09
607,2.48482e-09
608,2.48458e-09
609,2.4844e-09
610,2.48422e-09
611,2.48404e-09
612,2.48386e-09
613,2.48368e-09
614,2.48349e-09
615,2.48331e-09
616,2.48318e-09
617,2.483e-09
618,2.48282e-09
619,2.48265e-09
620,2.48247e-09
621,2.48229e-09
622,2.48211e-09
623,2.48193e-09
624,2.48175e-09
625,2.48154e-09
626,2.48135e-09
627,2.48116e-09
628,2.48098e-09
629,2.48079e-09
630,2.4806e-09
631,2.48042e-09
632,2.48023e-09
633,2.48004e-09
634,2.47986e-09
635,2.47967e-09
636,2.47949e-09
637,2.4793e-09
638,2.47912e-09
639,2.47893e-09
640,2.47875e-09
641,2.47857e-09
642,2.47838e-09
643,2.47819e-09
644,2.478e-09
645,2.47781e-09
646,2.47761e-09
647,2.47742e-09
648,2.47723e-09
649,2.47703e-09
650,2.47679e-09
651,2.4766e-09
652,2.47641e-09
653,2.47622e-09
654,2.47603e-09
655,2.47584e-09
656,2.47565e-09
657,2.47546e-09
658,2.47532e-09
659,2.47512e-09
660,2.47493e-09
661,2.47473e-09
662,2.47453e-09
663,2.47433e-09
664,2.47413e-09
665,2.47394e-09
666,2.47374e-09
667,2.47347e-09
668,2.47327e-09
669,2.47307e-09
670,2.47287e-09
671,2.47267e-09
672,2.47247e-09
673,2.47228e-09
674,2.47208e-09
675,2.47197e-09
676,2.47177e-09
677,2.47157e-09
678,2.47137e-09
679,2.47117e-09
680,2.47097e-09
681,2.47077e-09
682,2.47057e-09
683,2.47038e-09
684,2.47018e-09
685,2.46992e-09
686,2.46971e-09
687,2.46951e-09
688,2.46931e-09
689,2.46911e-09
690,2.46891e-09
691,2.4687e-09
692,2.46859e-09
693,2.46839e-09
694,2.46819e-09
695,2.46799e-09
696,2.46779e-09
697,2.46758e-09
698,2.46738e-09
699,2.46718e-09
700,2.46697e-09
701,2.46677e-09
702,2.46651e-09
703,2.4663e-09
704,2.4661e-09
705,2.46589e-09
706,2.46569e-09
707,2.46548e-09
708,2.46527e-09
709,2.46514e-09
710,2.46494e-09
711,2.46473e-09
712,2.46453e-09
713,2.46432e-09
714,2.46411e-09
715,2.46391e-09
716,2.4637e-09
717,2.46349e-09
718,2.46328e-09
719,2.46303e-09
720,2.46282e-09
721,2.46261e-09
722,2.4624e-09
723,2.46219e-09
724,2.46198e-09
725,2.46177e-09
726,2.46155e-09
727,2.46141e-09
728,2.4612e-09
729,2.46099e-09
730,2.46078e-09
731,2.46057e-09
732,2.46036e-09
733,2.46015e-09
734,2.45994e-09
735,2.45973e-09
736,2.45951e-09
737,2.45926e-09
738,2.45904e-09
739,2.45883e-09
740,2.45862e-09
741,2.4584e-09
742,2.45819e-09
743,2.45797e-09
744,2.45781e-09
745,2.4576e-09
746,2.45739e-09
747,2.45717e-09
748,2.45696e-09
749,2.45674e-09
750,2.45653e-09
751,2.45632e-09
752,2.4561e-09
753,2.45589e-09
754,2.45563e-09
755,2.45541e-09
756,2.4552e-09
757,2.45498e-09
758,2.45476e-09
759,2.45455e-09
760,2.45433e-09
761,2.45415e-09
762,2.45393e-09
763,2.45372e-09
764,2.45351e-09
765,2.4533e-09
766,2.45309e-09
767,2.45288e-09
768,2.45267e-09
769,2.45246e-09
770,2.45225e-09
771,2.45204e-09
772,2.45178e-09
773,2.45157e-09
774,2.45136e-09
775,2.45114e-09
776,2.45093e-09
777,2.45072e-09
778,2.4505e-09
779,2.45031e-09
780,2.4501e-09
781,2.44989e-09
782,2.44967e-09
783,2.44946e-09
784,2.44925e-09
785,2.44903e-09
786,2.44882e-09
787,2.4486e-09
788,2.44839e-09
789,2.44817e-09
790,2.44792e-09
791,2.44771e-09
792,2.44749e-09
793,2.44727e-09
794,2.44706e-09
795,2.44684e-09
796,2.44657e-09
797,2.44642e-09
798,2.4462e-09
799,2.44599e-09
800,2.44577e-09
801,2.44556e-09
802,2.44534e-09
803,2.44512e-09
804,2.4449e-09
805,2.44469e-09
806,2.44447e-09
807,2.44425e-09
808,2.444e-09
809,2.44378e-09
810,2.44356e-09
811,2.44334e-09
812,2.44312e-09
813,2.4429e-09
814,2.44262e-09
815,2.44247e-09
816,2.44225e-09
817,2.44203e-09
818,2.44181e-09
819,2.44159e-09
820,2.44137e-09
821,2.44115e-09
822,2.44093e-09
823,2.44071e-09
824,2.44049e-09
825,2.44025e-09
826,2.44002e-09
827,2.4398e-09
828,2.43958e-09
829,2.43936e-09
830,2.43914e-09
831,2.43891e-09
832,2.43863e-09
833,2.43846e-09
834,2.43824e-09
835,2.43802e-09
836,2.43779e-09
837,2.43757e-09
838,2.43735e-09
839,2.43713e-09
840,2.4369e-09
841,2.43668e-09
842,2.43646e-09
843,2.43621e-09
844,2.43599e-09
845,2.43576e-09
846,2.43554e-09
847,2.43531e-09
848,2.43508e-09
849,2.43486e-09
850,2.43459e-09
851,2.43439e-09
852,2.43416e-09
853,2.43394e-09
854,2.43371e-09
855,2.43348e-09
856,2.43326e-09
857,2.43303e-09
858,2.4328e-09
859,2.43258e-09
860,2.43235e-09
861,2.43212e-09
862,2.43187e-09
863,2.43164e-09
864,2.43141e-09
865,2.43118e-09
866,2.43095e-09
867,2.43069e-09
868,2.43046e-09
869,2.43023e-09
870,2.43e-09
871,2.42976e-09
872,2.42953e-09
873,2.4293e-09
874,2.42907e-09
875,2.42883e-09
876,2.4286e-09
877,2.42837e-09
878,2.42813e-09
879,2.42789e-09
880,2.42764e-09
881,2.4274e-09
