Step,ToT (s)
1,4.68333e-10
2,5.00688e-10
3,5.30801e-10
4,5.59045e-10
5,5.85655e-10
6,6.10884e-10
7,6.34899e-10
8,6.57807e-10
9,6.79752e-10
10,7.00821e-10
11,7.21072e-10
12,7.40597e-10
13,7.59449e-10
14,7.77686e-10
15,7.95342e-10
16,8.12457e-10
17,8.29071e-10
18,8.45218e-10
19,8.60923e-10
20,8.76217e-10
21,8.91123e-10
22,9.05652e-10
23,9.19818e-10
24,9.33655e-10
25,9.47183e-10
26,9.60404e-10
27,9.73322e-10
28,9.85979e-10
29,9.98369e-10
30,1.01049e-09
31,1.02239e-09
32,1.03404e-09
33,1.04546e-09
34,1.05668e-09
35,1.06768e-09
36,1.07849e-09
37,1.08909e-09
38,1.09952e-09
39,1.10975e-09
40,1.11983e-09
41,1.12971e-09
42,1.13945e-09
43,1.14902e-09
44,1.15844e-09
45,1.16771e-09
46,1.17683e-09
47,1.18582e-09
48,1.19466e-09
49,1.20339e-09
50,1.21196e-09
51,1.22042e-09
52,1.22877e-09
53,1.23697e-09
54,1.24508e-09
55,1.25307e-09
56,1.26094e-09
57,1.26872e-09
58,1.27638e-09
59,1.28394e-09
60,1.29141e-09
61,1.29878e-09
62,1.30604e-09
63,1.31322e-09
64,1.32031e-09
65,1.3273e-09
66,1.3342e-09
67,1.34104e-09
68,1.34777e-09
69,1.35442e-09
70,1.361e-09
71,1.3675e-09
72,1.37391e-09
73,1.38026e-09
74,1.38654e-09
75,1.39274e-09
76,1.39886e-09
77,1.40491e-09
78,1.41091e-09
79,1.41683e-09
80,1.42268e-09
81,1.42847e-09
82,1.43421e-09
83,1.43988e-09
84,1.44548e-09
85,1.45102e-09
86,1.45651e-09
87,1.46194e-09
88,1.46731e-09
89,1.47262e-09
90,1.47788e-09
91,1.48309e-09
92,1.48825e-09
93,1.49335e-09
94,1.49839e-09
95,1.50338e-09
96,1.50834e-09
97,1.51324e-09
98,1.5181e-09
99,1.52289e-09
100,1.52765e-09
101,1.53236e-09
102,1.53703e-09
103,1.54166e-09
104,1.54623e-09
105,1.55076e-09
106,1.55525e-09
107,1.5597e-09
108,1.56411e-09
109,1.56849e-09
110,1.57282e-09
111,1.5771e-09
112,1.58135e-09
113,1.58556e-09
114,1.58974e-09
115,1.59387e-09
116,1.59798e-09
117,1.60204e-09
118,1.60606e-09
119,1.61005e-09
120,1.61401e-09
121,1.61794e-09
122,1.62183e-09
123,1.62569e-09
124,1.62951e-09
125,1.6333e-09
126,1.63706e-09
127,1.64079e-09
128,1.64448e-09
129,1.64815e-09
130,1.65179e-09
131,1.6554e-09
132,1.65897e-09
133,1.66252e-09
134,1.66603e-09
135,1.66952e-09
136,1.67298e-09
137,1.67642e-09
138,1.67983e-09
139,1.68321e-09
140,1.68656e-09
141,1.68988e-09
142,1.69318e-09
143,1.69645e-09
144,1.6997e-09
145,1.70292e-09
146,1.70613e-09
147,1.7093e-09
148,1.71245e-09
149,1.71558e-09
150,1.71868e-09
151,1.72175e-09
152,1.7248e-09
153,1.72784e-09
154,1.73085e-09
155,1.73383e-09
156,1.7368e-09
157,1.73974e-09
158,1.74267e-09
159,1.74557e-09
160,1.74845e-09
161,1.7513e-09
162,1.75413e-09
163,1.75695e-09
164,1.75975e-09
165,1.76252e-09
166,1.76528e-09
167,1.76802e-09
168,1.77074e-09
169,1.77343e-09
170,1.77611e-09
171,1.77877e-09
172,1.78141e-09
173,1.78403e-09
174,1.78664e-09
175,1.78922e-09
176,1.79179e-09
177,1.79434e-09
178,1.79687e-09
179,1.79939e-09
180,1.80189e-09
181,1.80437e-09
182,1.80684e-09
183,1.80929e-09
184,1.81172e-09
185,1.81413e-09
186,1.81653e-09
187,1.81891e-09
188,1.82128e-09
189,1.82363e-09
190,1.82597e-09
191,1.82829e-09
192,1.8306e-09
193,1.83288e-09
194,1.83516e-09
195,1.83742e-09
196,1.83967e-09
197,1.8419e-09
198,1.84412e-09
199,1.84632e-09
200,1.8485e-09
201,1.85068e-09
202,1.85284e-09
203,1.85498e-09
204,1.85712e-09
205,1.85924e-09
206,1.86134e-09
207,1.86344e-09
208,1.86552e-09
209,1.86758e-09
210,1.86963e-09
211,1.87168e-09
212,1.87371e-09
213,1.87572e-09
214,1.87772e-09
215,1.87972e-09
216,1.88169e-09
217,1.88366e-09
218,1.88561e-09
219,1.88756e-09
220,1.88949e-09
221,1.8914e-09
222,1.89331e-09
223,1.89521e-09
224,1.89709e-09
225,1.89896e-09
226,1.90082e-09
227,1.90267e-09
228,1.90451e-09
229,1.90634e-09
230,1.90816e-09
231,1.90997e-09
232,1.91176e-09
233,1.91355e-09
234,1.91532e-09
235,1.91708e-09
236,1.91884e-09
237,1.92058e-09
238,1.92231e-09
239,1.92404e-09
240,1.92575e-09
241,1.92745e-09
242,1.92914e-09
243,1.93082e-09
244,1.93249e-09
245,1.93416e-09
246,1.93582e-09
247,1.93746e-09
248,1.9391e-09
249,1.94072e-09
250,1.94234e-09
251,1.94395e-09
252,1.94555e-09
253,1.94713e-09
254,1.94871e-09
255,1.95028e-09
256,1.95185e-09
257,1.9534e-09
258,1.95494e-09
259,1.95647e-09
260,1.958e-09
261,1.95952e-09
262,1.96103e-09
263,1.96252e-09
264,1.96402e-09
265,1.96551e-09
266,1.96698e-09
267,1.96845e-09
268,1.96991e-09
269,1.97136e-09
270,1.97281e-09
271,1.97424e-09
272,1.97567e-09
273,1.97709e-09
274,1.9785e-09
275,1.97991e-09
276,1.9813e-09
277,1.98269e-09
278,1.98407e-09
279,1.98544e-09
280,1.98681e-09
281,1.98817e-09
282,1.98951e-09
283,1.99086e-09
284,1.99219e-09
285,1.99352e-09
286,1.99484e-09
287,1.99616e-09
288,1.99746e-09
289,1.99876e-09
290,2.00006e-09
291,2.00134e-09
292,2.00262e-09
293,2.00389e-09
294,2.00516e-09
295,2.00642e-09
296,2.00767e-09
297,2.00891e-09
298,2.01015e-09
299,2.01138e-09
300,2.0126e-09
301,2.01382e-09
302,2.01504e-09
303,2.01624e-09
304,2.01744e-09
305,2.01864e-09
306,2.01982e-09
307,2.021e-09
308,2.02218e-09
309,2.02335e-09
310,2.02451e-09
311,2.02566e-09
312,2.02681e-09
313,2.02795e-09
314,2.02909e-09
315,2.03023e-09
316,2.03135e-09
317,2.03247e-09
318,2.03359e-09
319,2.03469e-09
320,2.0358e-09
321,2.03689e-09
322,2.03799e-09
323,2.03907e-09
324,2.04015e-09
325,2.04122e-09
326,2.04229e-09
327,2.04335e-09
328,2.04441e-09
329,2.04546e-09
330,2.04651e-09
331,2.04755e-09
332,2.04859e-09
333,2.04961e-09
334,2.05064e-09
335,2.05166e-09
336,2.05268e-09
337,2.05368e-09
338,2.05469e-09
339,2.05569e-09
340,2.05668e-09
341,2.05767e-09
342,2.05865e-09
343,2.05963e-09
344,2.0606e-09
345,2.06157e-09
346,2.06254e-09
347,2.0635e-09
348,2.06445e-09
349,2.0654e-09
350,2.06635e-09
351,2.06729e-09
352,2.06822e-09
353,2.06915e-09
354,2.07007e-09
355,2.071e-09
356,2.07191e-09
357,2.07283e-09
358,2.07374e-09
359,2.07464e-09
360,2.07554e-09
361,2.07644e-09
362,2.07733e-09
363,2.07821e-09
364,2.07909e-09
365,2.07997e-09
366,2.08084e-09
367,2.08171e-09
368,2.08257e-09
369,2.08343e-09
370,2.08428e-09
371,2.08513e-09
372,2.08598e-09
373,2.08681e-09
374,2.08765e-09
375,2.08848e-09
376,2.08931e-09
377,2.09014e-09
378,2.09095e-09
379,2.09177e-09
380,2.09258e-09
381,2.09338e-09
382,2.09418e-09
383,2.09498e-09
384,2.09578e-09
385,2.09657e-09
386,2.09735e-09
387,2.09813e-09
388,2.09891e-09
389,2.09969e-09
390,2.10046e-09
391,2.10123e-09
392,2.102e-09
393,2.10276e-09
394,2.10352e-09
395,2.10427e-09
396,2.10502e-09
397,2.10577e-09
398,2.10651e-09
399,2.10725e-09
400,2.10798e-09
401,2.10871e-09
402,2.10944e-09
403,2.11016e-09
404,2.11088e-09
405,2.1116e-09
406,2.11231e-09
407,2.11302e-09
408,2.11373e-09
409,2.11443e-09
410,2.11512e-09
411,2.11582e-09
412,2.11651e-09
413,2.11719e-09
414,2.11788e-09
415,2.11856e-09
416,2.11923e-09
417,2.11991e-09
418,2.12058e-09
419,2.12124e-09
420,2.1219e-09
421,2.12256e-09
422,2.12322e-09
423,2.12387e-09
424,2.12452e-09
425,2.12516e-09
426,2.12581e-09
427,2.12645e-09
428,2.12709e-09
429,2.12773e-09
430,2.12837e-09
431,2.129e-09
432,2.12962e-09
433,2.13025e-09
434,2.13087e-09
435,2.13149e-09
436,2.1321e-09
437,2.13272e-09
438,2.13332e-09
439,2.13393e-09
440,2.13453e-09
441,2.13513e-09
442,2.13573e-09
443,2.13632e-09
444,2.13691e-09
445,2.1375e-09
446,2.13808e-09
447,2.13866e-09
448,2.13924e-09
449,2.13982e-09
450,2.14039e-09
451,2.14096e-09
452,2.14152e-09
453,2.14209e-09
454,2.14265e-09
455,2.14321e-09
456,2.14376e-09
457,2.14431e-09
458,2.14486e-09
459,2.14541e-09
460,2.14595e-09
461,2.14649e-09
462,2.14702e-09
463,2.14756e-09
464,2.14809e-09
465,2.14862e-09
466,2.14915e-09
467,2.14967e-09
468,2.15019e-09
469,2.15071e-09
470,2.15123e-09
471,2.15175e-09
472,2.15227e-09
473,2.15278e-09
474,2.15329e-09
475,2.1538e-09
476,2.1543e-09
477,2.1548e-09
478,2.1553e-09
479,2.1558e-09
480,2.1563e-09
481,2.15679e-09
482,2.15728e-09
483,2.15777e-09
484,2.15825e-09
485,2.15873e-09
486,2.15921e-09
487,2.15969e-09
488,2.16016e-09
489,2.16064e-09
490,2.1611e-09
491,2.16157e-09
492,2.16203e-09
493,2.1625e-09
494,2.16296e-09
495,2.16341e-09
496,2.16387e-09
497,2.16432e-09
498,2.16477e-09
499,2.16522e-09
500,2.16567e-09
501,2.16611e-09
502,2.16655e-09
503,2.16699e-09
504,2.16742e-09
505,2.16786e-09
506,2.16829e-09
507,2.16871e-09
508,2.16914e-09
509,2.16956e-09
510,2.16999e-09
511,2.17041e-09
512,2.17082e-09
513,2.17124e-09
514,2.17165e-09
515,2.17206e-09
516,2.17247e-09
517,2.17288e-09
518,2.17328e-09
519,2.17369e-09
520,2.17409e-09
521,2.1745e-09
522,2.1749e-09
523,2.1753e-09
524,2.1757e-09
525,2.17609e-09
526,2.17648e-09
527,2.17688e-09
528,2.17726e-09
529,2.17765e-09
530,2.17803e-09
531,2.17842e-09
532,2.1788e-09
533,2.17918e-09
534,2.17955e-09
535,2.17993e-09
536,2.1803e-09
537,2.18067e-09
538,2.18104e-09
539,2.18141e-09
540,2.18177e-09
541,2.18213e-09
542,2.18249e-09
543,2.18285e-09
544,2.18321e-09
545,2.18356e-09
546,2.18391e-09
547,2.18426e-09
548,2.18461e-09
549,2.18496e-09
550,2.1853e-09
551,2.18565e-09
552,2.18599e-09
553,2.18632e-09
554,2.18666e-09
555,2.187e-09
556,2.18733e-09
557,2.18766e-09
558,2.18799e-09
559,2.18832e-09
560,2.18865e-09
561,2.18897e-09
562,2.18929e-09
563,2.18961e-09
564,2.18993e-09
565,2.19025e-09
566,2.19056e-09
567,2.19088e-09
568,2.19119e-09
569,2.1915e-09
570,2.19181e-09
571,2.19211e-09
572,2.19242e-09
573,2.19272e-09
574,2.19302e-09
575,2.19332e-09
576,2.19362e-09
577,2.19392e-09
578,2.19422e-09
579,2.19452e-09
580,2.19481e-09
581,2.19511e-09
582,2.1954e-09
583,2.19569e-09
584,2.19599e-09
585,2.19627e-09
586,2.19656e-09
587,2.19685e-09
588,2.19713e-09
589,2.19741e-09
590,2.19769e-09
591,2.19797e-09
592,2.19825e-09
593,2.19852e-09
594,2.1988e-09
595,2.19907e-09
596,2.19934e-09
597,2.19961e-09
598,2.19988e-09
599,2.20014e-09
600,2.20041e-09
601,2.20067e-09
602,2.20093e-09
603,2.20119e-09
604,2.20145e-09
605,2.2017e-09
606,2.20196e-09
607,2.20221e-09
608,2.20246e-09
609,2.20271e-09
610,2.20296e-09
611,2.20321e-09
612,2.20345e-09
613,2.20369e-09
614,2.20394e-09
615,2.20418e-09
616,2.20442e-09
617,2.20466e-09
618,2.20489e-09
619,2.20513e-09
620,2.20536e-09
621,2.2056e-09
622,2.20583e-09
623,2.20606e-09
624,2.20628e-09
625,2.20651e-09
626,2.20674e-09
627,2.20696e-09
628,2.20718e-09
629,2.2074e-09
630,2.20762e-09
631,2.20784e-09
632,2.20806e-09
633,2.20827e-09
634,2.20849e-09
635,2.2087e-09
636,2.20891e-09
637,2.20912e-09
638,2.20933e-09
639,2.20954e-09
640,2.20974e-09
641,2.20995e-09
642,2.21016e-09
643,2.21036e-09
644,2.21057e-09
645,2.21078e-09
646,2.21098e-09
647,2.21118e-09
648,2.21138e-09
649,2.21158e-09
650,2.21178e-09
651,2.21198e-09
652,2.21218e-09
653,2.21237e-09
654,2.21256e-09
655,2.21276e-09
656,2.21295e-09
657,2.21314e-09
658,2.21333e-09
659,2.21351e-09
660,2.2137e-09
661,2.21388e-09
662,2.21407e-09
663,2.21425e-09
664,2.21443e-09
665,2.21461e-09
666,2.21479e-09
667,2.21497e-09
668,2.21514e-09
669,2.21532e-09
670,2.21549e-09
671,2.21566e-09
672,2.21584e-09
673,2.21601e-09
674,2.21617e-09
675,2.21634e-09
676,2.21651e-09
677,2.21667e-09
678,2.21684e-09
679,2.217e-09
680,2.21716e-09
681,2.21732e-09
682,2.21748e-09
683,2.21764e-09
684,2.2178e-09
685,2.21795e-09
686,2.21811e-09
687,2.21826e-09
688,2.21842e-09
689,2.21857e-09
690,2.21872e-09
691,2.21887e-09
692,2.21902e-09
693,2.21916e-09
694,2.21931e-09
695,2.21945e-09
696,2.2196e-09
697,2.21974e-09
698,2.21988e-09
699,2.22002e-09
700,2.22016e-09
701,2.2203e-09
702,2.22044e-09
703,2.22057e-09
704,2.22071e-09
705,2.22084e-09
706,2.22097e-09
707,2.2211e-09
708,2.22123e-09
709,2.22136e-09
710,2.22149e-09
711,2.22162e-09
712,2.22175e-09
713,2.22187e-09
714,2.222e-09
715,2.22212e-09
716,2.22224e-09
717,2.22237e-09
718,2.2225e-09
719,2.22262e-09
720,2.22275e-09
721,2.22287e-09
722,2.22299e-09
723,2.22311e-09
724,2.22323e-09
725,2.22335e-09
726,2.22347e-09
727,2.22359e-09
728,2.2237e-09
729,2.22382e-09
730,2.22394e-09
731,2.22405e-09
732,2.22416e-09
733,2.22427e-09
734,2.22438e-09
735,2.22449e-09
736,2.2246e-09
737,2.22471e-09
738,2.22482e-09
739,2.22492e-09
740,2.22503e-09
741,2.22513e-09
742,2.22523e-09
743,2.22534e-09
744,2.22544e-09
745,2.22554e-09
746,2.22564e-09
747,2.22573e-09
748,2.22583e-09
749,2.22593e-09
750,2.22602e-09
751,2.22612e-09
752,2.22621e-09
753,2.2263e-09
754,2.2264e-09
755,2.22649e-09
756,2.22658e-09
757,2.22667e-09
758,2.22676e-09
759,2.22684e-09
760,2.22693e-09
761,2.22701e-09
762,2.2271e-09
763,2.22718e-09
764,2.22727e-09
765,2.22735e-09
766,2.22743e-09
767,2.22751e-09
768,2.22759e-09
769,2.22767e-09
770,2.22775e-09
771,2.22782e-09
772,2.2279e-09
773,2.22798e-09
774,2.22805e-09
775,2.22812e-09
776,2.2282e-09
777,2.22827e-09
778,2.22834e-09
779,2.22841e-09
780,2.22848e-09
781,2.22855e-09
782,2.22862e-09
783,2.22868e-09
784,2.22875e-09
785,2.22881e-09
786,2.22888e-09
787,2.22894e-09
788,2.22901e-09
789,2.22907e-09
790,2.22913e-09
791,2.22919e-09
792,2.22925e-09
793,2.22931e-09
794,2.22937e-09
795,2.22942e-09
796,2.22948e-09
797,2.22953e-09
798,2.22959e-09
799,2.22964e-09
800,2.2297e-09
801,2.22975e-09
802,2.2298e-09
803,2.22985e-09
804,2.2299e-09
805,2.22996e-09
806,2.23001e-09
807,2.23007e-09
808,2.23012e-09
809,2.23017e-09
810,2.23023e-09
811,2.23028e-09
812,2.23033e-09
813,2.23038e-09
814,2.23042e-09
815,2.23047e-09
816,2.23052e-09
817,2.23056e-09
818,2.23061e-09
819,2.23065e-09
820,2.2307e-09
821,2.23074e-09
822,2.23078e-09
823,2.23083e-09
824,2.23087e-09
825,2.23091e-09
826,2.23094e-09
827,2.23098e-09
828,2.23102e-09
829,2.23106e-09
830,2.23109e-09
831,2.23113e-09
832,2.23116e-09
833,2.2312e-09
834,2.23123e-09
835,2.23126e-09
836,2.23129e-09
837,2.23132e-09
838,2.23135e-09
839,2.23138e-09
840,2.23141e-09
841,2.23143e-09
842,2.23146e-09
843,2.23149e-09
844,2.23151e-09
845,2.23153e-09
846,2.23156e-09
847,2.23158e-09
848,2.2316e-09
849,2.23162e-09
850,2.23164e-09
851,2.23166e-09
852,2.23167e-09
853,2.23169e-09
854,2.2317e-09
855,2.23172e-09
856,2.23173e-09
857,2.23174e-09
858,2.23176e-09
859,2.23177e-09
860,2.23177e-09
861,2.23178e-09
862,2.23179e-09
863,2.23179e-09
864,2.2318e-09
865,2.2318e-09
866,2.2318e-09
867,2.23181e-09
868,2.23181e-09
869,2.2318e-09
870,2.2318e-09
871,2.2318e-09
872,2.23179e-09
873,2.23178e-09
874,2.23178e-09
875,2.23177e-09
876,2.23175e-09
877,2.23174e-09
878,2.23173e-09
879,2.23171e-09
880,2.23169e-09
881,2.23167e-09
